# PAMELA electron spectra, Adriani et al., 2011, arXiv:1103.2880
# E(GeV) Flux(m^-2 s^-1 sr^-1 GeV^-1) Emin Emax Fmin Fmax
1.11  31.20   1.04  1.19  29.90   32.50
1.28  26.70   1.19  1.37  25.58   27.82
1.47  23.00   1.37  1.57  22.00   24.00
1.68  18.80   1.57  1.80  18.00   19.61
1.93  15.03   1.80  2.07  14.43   15.64
2.22  11.94   2.07  2.38  11.44   12.45
2.55  8.970   2.38  2.73  8.570   9.370
2.92  6.670   2.73  3.13  6.380   6.970
3.36  4.760   3.13  3.60  4.560   4.960
3.85  3.400   3.60  4.13  3.300   3.500
4.42  2.300   4.13  4.74  2.200   2.400
5.10  1.560   4.70  5.40  1.490   1.630
5.80  1.060   5.40  6.30  1.010   1.110
6.70  0.720   6.30  7.20  0.689   0.751
7.70  0.470   7.20  8.20  0.449   0.491
8.80  0.310   8.20  9.50  0.299   0.321
10.1  0.191   9.50  10.9  0.182   0.200
11.6  0.126   10.9  12.5  0.121   0.131
13.4  7.90e-2 12.5  14.3  7.54e-2 8.26e-2
15.3  5.20e-2 14.3  16.4  4.98e-2 5.42e-2
17.6  3.26e-2 16.4  18.9  3.13e-2 3.39e-2
20.2  2.08e-2 18.9  21.7  1.97e-2 2.19e-2
23.2  1.26e-2 21.7  24.9  1.20e-2 1.32e-2
26.6  8.90e-3 24.9  28.6  8.40e-3 9.40e-3
30.6  5.20e-3 28.6  32.8  4.92e-3 5.48e-3
35.1  3.70e-3 32.8  37.7  3.42e-3 3.98e-3
40.3  2.20e-3 37.7  43.3  2.07e-3 2.33e-3
46.3  1.40e-3 43.3  49.7  1.28e-3 1.52e-3
53.2  1.04e-3 49.7  57.0  0.95e-3 1.13e-3
61.0  5.50e-4 57.0  65.5  4.96e-4 6.04e-4
70.1  4.10e-4 65.5  75.2  3.65e-4 4.55e-4
80.5  2.10e-4 75.2  86.3  1.79e-4 2.41e-4
92.4  1.50e-4 86.3  99.1  1.29e-4 1.71e-4
108.5 1.00e-4 99.1  119.1 7.96e-5 1.20e-4
130.4 7.00e-5 119.1 143.2 5.96e-5 8.04e-5
163.8 2.70e-5 143.2 188.8 2.19e-5 3.21e-5
220.7 9.60e-6 188.8 260.7 6.76e-6 1.24e-5
317.9 2.80e-6 260.7 394.5 1.60e-6 4.00e-6
491.4 9.00e-7 395.4 625.3 2.42e-7 1.56e-6
